# frequency transmission sigma
1.416500000000000057e+02 9.256265103794180105e-01 6.963731821683379238e-03
1.417000000000000171e+02 9.275046897442194016e-01 6.297305364128642606e-03
1.417500000000000000e+02 9.294443194120952656e-01 5.848762976676255901e-03
1.418000000000000114e+02 9.314536709405264459e-01 5.543502956783611171e-03
1.418499999999999943e+02 9.335672880868479684e-01 5.332313542566959226e-03
1.419000000000000057e+02 9.358320272709886867e-01 5.202280875728313748e-03
1.419500000000000171e+02 9.382908645495682265e-01 5.168172671458935719e-03
1.420000000000000000e+02 9.409685820974231785e-01 5.258180232394609951e-03
1.420500000000000114e+02 9.438628938300320792e-01 5.502207922934006408e-03
1.420999999999999943e+02 9.469429775418582995e-01 5.923431190631356889e-03
1.421500000000000057e+02 9.501553616635223243e-01 6.530450702502499025e-03
1.422000000000000171e+02 9.534352936384737909e-01 7.308947958626074021e-03
1.422500000000000000e+02 9.567204903840690333e-01 8.215068701381554248e-03
1.423000000000000114e+02 9.599636775964652813e-01 9.173888410494266885e-03
1.423499999999999943e+02 9.631405610580223708e-01 1.008503297546489708e-02
1.424000000000000057e+02 9.662508119137382945e-01 1.083569502724590107e-02
1.424500000000000171e+02 9.693112416093825345e-01 1.131958348478997144e-02
1.425000000000000000e+02 9.723424096733336297e-01 1.145863413338049641e-02
1.425500000000000114e+02 9.753520007040636930e-01 1.122291476820868467e-02
1.425999999999999943e+02 9.783197190754515660e-01 1.064377964630061277e-02
1.426500000000000057e+02 9.811884751216632949e-01 9.816279729695683021e-03
1.427000000000000171e+02 9.838650006577275287e-01 8.888379084509151484e-03
1.427500000000000000e+02 9.862301999286879894e-01 8.034992662470373179e-03
1.428000000000000114e+02 9.881566008559607983e-01 7.414968638686067655e-03
1.428499999999999943e+02 9.895283770129065237e-01 7.119154752085103330e-03
1.429000000000000057e+02 9.902591708709789220e-01 7.143311255504489372e-03
1.429500000000000171e+02 9.903041735080203578e-01 7.415557237516359583e-03
1.430000000000000000e+02 9.896648603999345095e-01 7.848146965103594552e-03
1.430500000000000114e+02 9.883866309455123789e-01 8.363557892737068927e-03
1.430999999999999943e+02 9.865508369381974507e-01 8.891316985039830756e-03
1.431500000000000057e+02 9.842631980542034809e-01 9.359282757940375411e-03
1.432000000000000171e+02 9.816405592214187958e-01 9.693763318351256153e-03
1.432500000000000000e+02 9.787976168600640570e-01 9.828504357440714240e-03
1.433000000000000114e+02 9.758348678884759542e-01 9.717114628305682442e-03
1.433499999999999943e+02 9.728287633679493229e-01 9.344360063896339080e-03
1.434000000000000057e+02 9.698249210010245758e-01 8.733978934827182558e-03
1.434500000000000171e+02 9.668352184427834173e-01 7.951830194806936217e-03
1.435000000000000000e+02 9.638395278990026238e-01 7.102683234515932975e-03
1.435500000000000114e+02 9.607925900269137509e-01 6.316522510940522292e-03
1.435999999999999943e+02 9.576359024097982342e-01 5.717757095987734649e-03
1.436500000000000057e+02 9.543134686951162404e-01 5.379916946675497753e-03
1.437000000000000171e+02 9.507889989061147906e-01 5.300194496519096063e-03
1.437500000000000000e+02 9.470611164966215023e-01 5.433214883075302565e-03
1.438000000000000114e+02 9.431728948201004714e-01 5.752275213948266491e-03
1.438499999999999943e+02 9.392130130185556425e-01 6.268084737057404848e-03
1.439000000000000057e+02 9.353078705637252188e-01 6.993728504450771356e-03
1.439500000000000171e+02 9.316064261422430937e-01 7.902831546432141641e-03
1.440000000000000000e+02 9.282613716115878377e-01 8.921589689166063361e-03
1.440500000000000114e+02 9.254108420715033700e-01 9.950457512338108795e-03
1.440999999999999943e+02 9.231641591452544038e-01 1.089018856611012956e-02
1.441500000000000057e+02 9.215936201476222500e-01 1.165822001181191989e-02
1.442000000000000171e+02 9.207327614246340053e-01 1.219473224148223504e-02
1.442500000000000000e+02 9.205803144492790135e-01 1.246209759864668268e-02
1.443000000000000114e+02 9.211083686443106711e-01 1.244131368443401366e-02
1.443499999999999943e+02 9.222729338046407044e-01 1.212808149157605653e-02
1.444000000000000057e+02 9.240249721461868404e-01 1.153046341616550258e-02
1.444500000000000171e+02 9.263199514482196584e-01 1.066975058565582633e-02
1.445000000000000000e+02 9.291241097101287094e-01 9.586553958483604379e-03
1.445500000000000114e+02 9.324160641266676652e-01 8.355848087550488482e-03
1.445999999999999943e+02 9.361832466354172988e-01 7.118192014951549296e-03
1.446500000000000057e+02 9.404138247881351775e-01 6.130919585634350341e-03
1.447000000000000171e+02 9.450859606917582090e-01 5.773918446357428728e-03
1.447500000000000000e+02 9.501570467700430900e-01 6.304599453494847718e-03
1.448000000000000114e+02 9.555556182839729518e-01 7.562736111071528301e-03
1.448499999999999943e+02 9.611779546127714458e-01 9.180344618544130850e-03
1.449000000000000057e+02 9.668902200458131535e-01 1.085572113026526606e-02
1.449500000000000171e+02 9.725357694857720281e-01 1.238701820540032313e-02
1.450000000000000000e+02 9.779462890246365392e-01 1.364122103968550860e-02
1.450500000000000114e+02 9.829549020523273839e-01 1.453489911502890176e-02
1.450999999999999943e+02 9.874092271103006579e-01 1.502613970858799643e-02
1.451500000000000057e+02 9.911825274400177799e-01 1.511013527099694213e-02
1.452000000000000171e+02 9.941814535918356288e-01 1.481433994575188928e-02
1.452500000000000000e+02 9.963493943531944730e-01 1.419161444951246888e-02
1.453000000000000114e+02 9.976650817421252038e-01 1.331120356993845469e-02
1.453499999999999943e+02 9.981367959125141409e-01 1.224826895408290262e-02
1.454000000000000057e+02 9.977932093385305512e-01 1.107330329326391798e-02
1.454500000000000171e+02 9.966724949607871364e-01 9.843213442889367504e-03
1.455000000000000000e+02 9.948116924718032328e-01 8.596253705882371532e-03
1.455500000000000114e+02 9.922383897101193506e-01 7.353417438486924834e-03
1.455999999999999943e+02 9.889664762059834358e-01 6.129935931575911448e-03
1.456500000000000057e+02 9.849970572498097932e-01 4.964637725284114060e-03
1.457000000000000171e+02 9.803246416672662944e-01 3.986649894665184914e-03
1.457500000000000000e+02 9.749475854663520735e-01 3.521209997700664677e-03
1.458000000000000114e+02 9.688807300935049494e-01 3.954589562140533449e-03
1.458499999999999943e+02 9.621675143938723807e-01 5.213587376311991546e-03
1.459000000000000057e+02 9.548888148451448732e-01 6.946271713776684849e-03
1.459500000000000171e+02 9.471664602383081943e-01 8.902875213473991287e-03
1.460000000000000000e+02 9.391606051368540653e-01 1.093057299288496473e-02
1.460500000000000114e+02 9.310615460856601633e-01 1.291958237428632479e-02
1.460999999999999943e+02 9.230776798847939446e-01 1.478289176308649963e-02
1.461500000000000057e+02 9.154218213275933103e-01 1.645174416374561507e-02
1.462000000000000171e+02 9.082979583242957178e-01 1.787551656283577900e-02
1.462500000000000000e+02 9.018899038412525604e-01 1.902177208768830730e-02
1.463000000000000114e+02 8.963525065174068329e-01 1.987519633182588050e-02
1.463499999999999943e+02 8.918053890211324886e-01 2.043528674356614658e-02
1.464000000000000057e+02 8.883287756424180781e-01 2.071309560362965749e-02
1.464500000000000171e+02 8.859609064394674549e-01 2.072745543060832557e-02
1.465000000000000000e+02 8.846967744194608185e-01 2.050115058565993645e-02
1.465500000000000114e+02 8.844883569248662702e-01 2.005754148594129926e-02
1.465999999999999943e+02 8.852469834904326262e-01 1.941820132538716118e-02
1.466500000000000057e+02 8.868487880545194990e-01 1.860210177197460166e-02
1.467000000000000171e+02 8.891441167767074605e-01 1.762665472799416350e-02
1.467500000000000000e+02 8.919711470370029760e-01 1.651041663005652776e-02
1.468000000000000114e+02 8.951728391704120158e-01 1.527659852535404039e-02
1.468499999999999943e+02 8.986149844844710799e-01 1.395599491916742381e-02
1.469000000000000057e+02 9.022020675755483277e-01 1.258788521111619055e-02
1.469500000000000171e+02 9.058874853318207299e-01 1.121802670409938370e-02
1.470000000000000000e+02 9.096756126375605822e-01 9.893880720642324322e-03
1.470500000000000114e+02 9.136150205622056708e-01 8.658274638482925042e-03
1.470999999999999943e+02 9.177841763038080414e-01 7.543344671760450655e-03
1.471500000000000057e+02 9.222724837796629771e-01 6.566532769871779966e-03
1.472000000000000171e+02 9.271601766356769581e-01 5.729631108209983295e-03
1.472500000000000000e+02 9.325003955606077088e-01 5.020800712003840177e-03
1.473000000000000114e+02 9.383060748758792480e-01 4.418923016380259076e-03
1.473499999999999943e+02 9.445433383604449062e-01 3.900117504188333264e-03
1.474000000000000057e+02 9.511321172121972589e-01 3.447212578113664425e-03
1.474500000000000171e+02 9.579536737218830034e-01 3.062752621766834382e-03
1.475000000000000000e+02 9.648636534692286437e-01 2.782162313156236102e-03
1.475500000000000114e+02 9.717083175256812089e-01 2.671439638618173813e-03
1.475999999999999943e+02 9.783409701410079595e-01 2.784108541444278717e-03
1.476500000000000057e+02 9.846355587649890939e-01 3.101888273190886707e-03
1.477000000000000171e+02 9.904950963204530723e-01 3.539160353055339700e-03
1.477500000000000000e+02 9.958538025770705682e-01 3.996438738863706923e-03
1.478000000000000114e+02 1.000673326100149918e+00 4.394847198360290336e-03
1.478499999999999943e+02 1.004934669141426706e+00 4.685886520343242670e-03
1.479000000000000057e+02 1.008628181283721226e+00 4.852474591595217976e-03
1.479500000000000171e+02 1.011744101617145342e+00 4.907028253472309892e-03
1.480000000000000000e+02 1.014265690007071674e+00 4.886291730669353219e-03
1.480500000000000114e+02 1.016166182896801384e+00 4.841368393790019230e-03
1.480999999999999943e+02 1.017409857685081853e+00 4.822489716720898024e-03
1.481500000000000057e+02 1.017956596785577261e+00 4.861963785586573619e-03
1.482000000000000171e+02 1.017768675963368175e+00 4.963540591785474583e-03
1.482500000000000000e+02 1.016818174842842204e+00 5.104881478761284438e-03
1.483000000000000114e+02 1.015093457523412956e+00 5.250317828470919476e-03
1.483499999999999943e+02 1.012603544549480983e+00 5.364685557084644153e-03
1.484000000000000057e+02 1.009379762481183995e+00 5.422050860878252672e-03
1.484500000000000171e+02 1.005474647266183963e+00 5.408928184733826673e-03
1.485000000000000000e+02 1.000958547422371003e+00 5.324195139196409056e-03
1.485500000000000114e+02 9.959146431224115137e-01 5.177738338982219336e-03
1.485999999999999943e+02 9.904331662337796383e-01 4.988891001313381333e-03
1.486500000000000057e+02 9.846055327494683818e-01 4.784832337422859766e-03
1.487000000000000171e+02 9.785189664314916103e-01 4.598431132200681871e-03
1.487500000000000000e+02 9.722520744765082990e-01 4.464584866202113249e-03
1.488000000000000114e+02 9.658717707148336551e-01 4.414348501993018564e-03
1.488499999999999943e+02 9.594319185832108632e-01 4.467672860975937903e-03
1.489000000000000057e+02 9.529740256070453608e-01 4.627710493334136720e-03
1.489500000000000171e+02 9.465301748111899505e-01 4.879643733124974271e-03
1.490000000000000000e+02 9.401280535253206949e-01 5.193887746005611782e-03
1.490500000000000114e+02 9.337974441288908745e-01 5.531110408809548386e-03
1.490999999999999943e+02 9.275770116971512325e-01 5.847410351716307055e-03
1.491500000000000057e+02 9.215199039249072355e-01 6.099784354826778658e-03
1.492000000000000171e+02 9.156967951074583834e-01 6.252204528815826987e-03
1.492500000000000000e+02 9.101956014551885188e-01 6.281662547245010948e-03
1.493000000000000114e+02 9.051179562687737823e-01 6.182809775069077543e-03
1.493499999999999943e+02 9.005732965919387434e-01 5.969875397925999798e-03
1.494000000000000057e+02 8.966717832353993112e-01 5.675074198939380164e-03
1.494500000000000171e+02 8.935171899678481244e-01 5.343207540950832730e-03
1.495000000000000000e+02 8.912005143486577685e-01 5.022523940677241054e-03
1.495500000000000114e+02 8.897946267629306405e-01 4.752863383158990179e-03
1.495999999999999943e+02 8.893499745666553213e-01 4.554553994564711217e-03
1.496500000000000057e+02 8.898912663074662888e-01 4.423932452779995132e-03
1.497000000000000171e+02 8.914151464399989733e-01 4.339137027422636933e-03
1.497500000000000000e+02 8.938890477821989089e-01 4.272669335163711661e-03
1.498000000000000114e+02 8.972515744237581359e-01 4.202938591406146090e-03
1.498499999999999943e+02 9.014148255708576141e-01 4.119816042842086752e-03
1.499000000000000057e+02 9.062689479730697828e-01 4.024243651137362175e-03
1.499500000000000171e+02 9.116888731704541060e-01 3.924616698218571197e-03
1.500000000000000000e+02 9.175426981847346619e-01 3.832962908109921983e-03
1.500500000000000114e+02 9.237006310287898536e-01 3.762841213575127911e-03
1.500999999999999943e+02 9.300430367089748129e-01 3.728804515922874794e-03
1.501500000000000057e+02 9.364660769338862822e-01 3.745255522159682965e-03
1.502000000000000171e+02 9.428838387723676995e-01 3.822581237722597492e-03
1.502500000000000000e+02 9.492266339267225739e-01 3.961491642522516239e-03
1.503000000000000114e+02 9.554360982569667371e-01 4.149742653939647759e-03
1.503499999999999943e+02 9.614585267883865027e-01 4.364494199948622775e-03
1.504000000000000057e+02 9.672382832503967354e-01 4.579049869509691645e-03
1.504500000000000171e+02 9.727130123164622333e-01 4.769963989937357242e-03
1.505000000000000000e+02 9.778118200882723876e-01 4.921550790816204418e-03
1.505500000000000114e+02 9.824567679694361511e-01 5.027252566867044040e-03
1.505999999999999943e+02 9.865671892277819710e-01 5.088957010239354359e-03
1.506500000000000057e+02 9.900656988014544524e-01 5.115806062110720732e-03
1.507000000000000171e+02 9.928844588794345505e-01 5.123530709961483971e-03
1.507500000000000000e+02 9.949703234160579557e-01 5.134188588379200863e-03
1.508000000000000114e+02 9.962878645287203128e-01 5.174961026061134645e-03
1.508499999999999943e+02 9.968198698173027505e-01 5.274354940423859640e-03
1.509000000000000057e+02 9.965655472641758994e-01 5.455669355884287981e-03
1.509500000000000171e+02 9.955372377223559166e-01 5.730412361858974908e-03
1.510000000000000000e+02 9.937567912989064833e-01 6.095596388429408430e-03
1.510500000000000114e+02 9.912528293902593823e-01 6.536178965329522174e-03
1.510999999999999943e+02 9.880598563767463149e-01 7.029856063094176710e-03
1.511500000000000057e+02 9.842196378563770054e-01 7.550394792760847622e-03
1.512000000000000171e+02 9.797845403135603259e-01 8.068077986309265051e-03
1.512500000000000000e+02 9.748218235111490992e-01 8.548700094474774580e-03
1.513000000000000114e+02 9.694174228030928431e-01 8.953708096915242651e-03
1.513499999999999943e+02 9.636777381556327349e-01 9.243265570256857869e-03
1.514000000000000057e+02 9.577284010404243375e-01 9.382219693690919612e-03
1.514500000000000171e+02 9.517097725623124838e-01 9.347443034650628271e-03
1.515000000000000000e+02 9.457697532042460553e-01 9.134518236633169114e-03
1.515500000000000114e+02 9.400550687883593159e-01 8.762105576091566012e-03
1.515999999999999943e+02 9.347023789191727383e-01 8.272933422028080561e-03
1.516500000000000057e+02 9.298303553093684171e-01 7.730485630534072485e-03
1.517000000000000171e+02 9.255334569612442275e-01 7.209857164873371971e-03
1.517500000000000000e+02 9.218776849975512944e-01 6.780991341087758834e-03
1.518000000000000114e+02 9.188982820517793693e-01 6.485953946610049925e-03
1.518499999999999943e+02 9.165992132665229386e-01 6.320727786738308991e-03
1.519000000000000057e+02 9.149543113760980617e-01 6.236305678504984983e-03
1.519500000000000171e+02 9.139101157306935841e-01 6.160953616168083832e-03
1.520000000000000000e+02 9.133905836014940549e-01 6.028816791180687147e-03
1.520500000000000114e+02 9.133038905493391368e-01 5.800996130737080120e-03
1.520999999999999943e+02 9.135513656450348075e-01 5.476245800842851480e-03
1.521500000000000057e+02 9.140381756992220774e-01 5.093511981466098716e-03
1.522000000000000171e+02 9.146847278325379582e-01 4.725879998104694051e-03
1.522500000000000000e+02 9.154370867527049649e-01 4.460052852381705089e-03
1.523000000000000114e+02 9.162743047787740291e-01 4.357533732739080588e-03
1.523499999999999943e+02 9.172107442524151111e-01 4.417568431711153126e-03
1.524000000000000057e+02 9.182923582060594780e-01 4.580397073772333669e-03
1.524500000000000171e+02 9.195872907955869868e-01 4.769339205458242477e-03
1.525000000000000000e+02 9.211725827725808502e-01 4.929511719808749200e-03
1.525500000000000114e+02 9.231196814997014721e-01 5.041913450666817530e-03
1.525999999999999943e+02 9.254815511403609030e-01 5.119149409278924909e-03
1.526500000000000057e+02 9.282835188942714089e-01 5.192174207926983712e-03
1.527000000000000171e+02 9.315189233829861415e-01 5.293541023246789608e-03
1.527500000000000000e+02 9.351495582363913428e-01 5.442020824932688669e-03
1.528000000000000114e+02 9.391101041958047624e-01 5.634086030771267434e-03
1.528499999999999943e+02 9.433153025615894638e-01 5.845127088958590802e-03
1.529000000000000057e+02 9.476684898720957317e-01 6.038045844362557868e-03
1.529500000000000171e+02 9.520701890768484832e-01 6.174366375848967109e-03
1.530000000000000000e+02 9.564256534751167660e-01 6.224848369134853600e-03
1.530500000000000114e+02 9.606505390426438584e-01 6.179423368569903624e-03
1.530999999999999943e+02 9.646742140747155414e-01 6.057365236752527624e-03
1.531500000000000057e+02 9.684405803262216006e-01 5.917074699755205634e-03
1.532000000000000171e+02 9.719066451677924601e-01 5.859163558115663625e-03
1.532500000000000000e+02 9.750394082246636174e-01 6.007166868400111784e-03
1.533000000000000114e+02 9.778118653063003762e-01 6.455258174626614560e-03
1.533499999999999943e+02 9.801990504429872741e-01 7.214895079161505291e-03
1.534000000000000057e+02 9.821750080747237988e-01 8.213360225137713438e-03
1.534500000000000171e+02 9.837114009879288634e-01 9.335577843051551597e-03
1.535000000000000000e+02 9.847781256159884311e-01 1.046253272596523419e-02
1.535500000000000114e+02 9.853458671844209649e-01 1.149022721446425407e-02
1.536000000000000227e+02 9.853900663372177071e-01 1.233681487053128224e-02
1.536500000000000057e+02 9.848954035357174730e-01 1.294523687934275372e-02
1.537000000000000171e+02 9.838597551777428230e-01 1.328392475963789676e-02
1.537500000000000000e+02 9.822967017904082887e-01 1.334589016578438883e-02
1.538000000000000114e+02 9.802360454113261401e-01 1.314606600554058327e-02
1.538500000000000227e+02 9.777222972277624935e-01 1.271694138060247038e-02
1.539000000000000057e+02 9.748115597831141788e-01 1.210285434485057661e-02
1.539500000000000171e+02 9.715675122008216036e-01 1.135365307861405451e-02
1.540000000000000000e+02 9.680572577759207764e-01 1.051882919507218274e-02
1.540500000000000114e+02 9.643476480736050682e-01 9.643660883724486030e-03
1.541000000000000227e+02 9.605024495049045985e-01 8.769190722228864879e-03
1.541500000000000057e+02 9.565804672465370029e-01 7.937529158524076270e-03
1.542000000000000171e+02 9.526345581422531739e-01 7.202163303824398941e-03
1.542500000000000000e+02 9.487113774009949818e-01 6.638121487048802630e-03
1.543000000000000114e+02 9.448517042048543146e-01 6.337957902970928030e-03
1.543500000000000227e+02 9.410912434475475763e-01 6.376503071747904004e-03
1.544000000000000057e+02 9.374618567967643035e-01 6.758155884182695874e-03
1.544500000000000171e+02 9.339931905728072747e-01 7.402243888810901805e-03
1.545000000000000000e+02 9.307146148555310861e-01 8.182544344899489105e-03
1.545500000000000114e+02 9.276572767790707275e-01 8.973167968427044061e-03
1.546000000000000227e+02 9.248559464702229560e-01 9.670906172861631206e-03
1.546500000000000057e+02 9.223502591353234248e-01 1.020003795955270673e-02
1.547000000000000171e+02 9.201849787389470015e-01 1.051075297508897825e-02
1.547500000000000000e+02 9.184090341663049273e-01 1.057673500813856304e-02
1.548000000000000114e+02 9.170732729058044264e-01 1.039401706838118805e-02
1.548500000000000227e+02 9.162270863395438614e-01 9.981837074716493757e-03
1.549000000000000057e+02 9.159142389524262962e-01 9.385388541980710028e-03
