# Frequency Ratio Error
1.400000000000000000e+02 9.015102754407119390e-01 4.009394242220333526e-02
1.400500000000000114e+02 9.047413993704742641e-01 3.924726068299319581e-02
1.400999999999999943e+02 9.089590055546422631e-01 3.855162035218536593e-02
1.401500000000000057e+02 9.140084475181718959e-01 3.800300366871799118e-02
1.402000000000000171e+02 9.197104085613218016e-01 3.759842435832384117e-02
1.402500000000000000e+02 9.258577208227939392e-01 3.733528435450048089e-02
1.403000000000000114e+02 9.322145771725690588e-01 3.720994518983473942e-02
1.403499999999999943e+02 9.385205728038986672e-01 3.721594906513017026e-02
1.404000000000000057e+02 9.445010883001933033e-01 3.734238321061868204e-02
1.404500000000000171e+02 9.498841246698622731e-01 3.757289607834946032e-02
1.405000000000000000e+02 9.544219069788318910e-01 3.788575986754420116e-02
1.405500000000000114e+02 9.579138200749408583e-01 3.825510669847245748e-02
1.405999999999999943e+02 9.602261960606861546e-01 3.865311637028832903e-02
1.406500000000000057e+02 9.613047119867851320e-01 3.905264075167174526e-02
1.407000000000000171e+02 9.611767743687138488e-01 3.942963978598500174e-02
1.407500000000000000e+02 9.599437302690733143e-01 3.976491468529069068e-02
1.408000000000000114e+02 9.577651221449280383e-01 4.004488774305399457e-02
1.408499999999999943e+02 9.548386573501288499e-01 4.026147108507985989e-02
1.409000000000000057e+02 9.513797519162935368e-01 4.041127914651904823e-02
1.409500000000000171e+02 9.476036556493175889e-01 4.049452342368119878e-02
1.410000000000000000e+02 9.437118183799563242e-01 4.051389799586304491e-02
1.410500000000000114e+02 9.398828579113143178e-01 4.047366982178607353e-02
1.410999999999999943e+02 9.362675688781617600e-01 4.037907960848140243e-02
1.411500000000000057e+02 9.329869536444795886e-01 4.023606956846403904e-02
1.412000000000000171e+02 9.301321824195115662e-01 4.005129459132207581e-02
1.412500000000000000e+02 9.277655598078524690e-01 3.983233944784882186e-02
1.413000000000000114e+02 9.259218594986918793e-01 3.958804693836929373e-02
1.413499999999999943e+02 9.246096978662019517e-01 3.932885160734930774e-02
1.414000000000000057e+02 9.238128996875859533e-01 3.906700656436848385e-02
1.414500000000000171e+02 9.234920384569059726e-01 3.881658870066892475e-02
1.415000000000000000e+02 9.235864932213835310e-01 3.859317709142386782e-02
1.415500000000000114e+02 9.240174373922147577e-01 3.841313041595879191e-02
1.415999999999999943e+02 9.246921455180705518e-01 3.829244964976839805e-02
1.416500000000000057e+02 9.255098594924272559e-01 3.824530107692301201e-02
1.417000000000000171e+02 9.263691998717440423e-01 3.828237570058166256e-02
1.417500000000000000e+02 9.271767711254762512e-01 3.840934277300626920e-02
1.418000000000000114e+02 9.278562520336354202e-01 3.862568084014510877e-02
1.418499999999999943e+02 9.283569657552599441e-01 3.892411765282628028e-02
1.419000000000000057e+02 9.286607699113775816e-01 3.929079115180558052e-02
1.419500000000000171e+02 9.287861500922622859e-01 3.970610059269570613e-02
1.420000000000000000e+02 9.287886486930511110e-01 4.014610367820746484e-02
1.420500000000000114e+02 9.287571746445294485e-01 4.058426728483566226e-02
1.420999999999999943e+02 9.288062468661467674e-01 4.099339514367897341e-02
1.421500000000000057e+02 9.290647481015552600e-01 4.134760490809562261e-02
1.422000000000000171e+02 9.296622426798820671e-01 4.162426985980299116e-02
1.422500000000000000e+02 9.307142935099375070e-01 4.180584969336786916e-02
1.423000000000000114e+02 9.323084551489763117e-01 4.188150604296447116e-02
1.423499999999999943e+02 9.344926675578487663e-01 4.184834982057526048e-02
1.424000000000000057e+02 9.372675734492333932e-01 4.171213085856116665e-02
1.424500000000000171e+02 9.405838026111658090e-01 4.148718794542904237e-02
1.425000000000000000e+02 9.443445474917513405e-01 4.119554730548614929e-02
1.425500000000000114e+02 9.484129215734533602e-01 4.086518381946991491e-02
1.425999999999999943e+02 9.526228380359412773e-01 4.052761036275528972e-02
1.426500000000000057e+02 9.567916661044985061e-01 4.021509019848428651e-02
1.427000000000000171e+02 9.607328375014162480e-01 3.995783264755158742e-02
1.427500000000000000e+02 9.642668847378946806e-01 3.978151203321762114e-02
1.428000000000000114e+02 9.672299805652248006e-01 3.970535304118850278e-02
1.428499999999999943e+02 9.694797368546623773e-01 3.974088664926064829e-02
1.429000000000000057e+02 9.708986425368807405e-01 3.989134530424113395e-02
1.429500000000000171e+02 9.713959611327670496e-01 4.015157371753951682e-02
1.430000000000000000e+02 9.709091230149828888e-01 4.050830388663453907e-02
1.430500000000000114e+02 9.694056367569634514e-01 4.094067925651719009e-02
1.430999999999999943e+02 9.668863228899016171e-01 4.142099520118396050e-02
1.431500000000000057e+02 9.633902472341729917e-01 4.191572279008577012e-02
1.432000000000000171e+02 9.590010943900852958e-01 4.238696697618317411e-02
1.432500000000000000e+02 9.538538912414570303e-01 4.279454377160456235e-02
1.433000000000000114e+02 9.481400656265074334e-01 4.309880986403540754e-02
1.433499999999999943e+02 9.421080591062011012e-01 4.326422002874254213e-02
1.434000000000000057e+02 9.360565254498832699e-01 4.326333101481117521e-02
1.434500000000000171e+02 9.303180074944749078e-01 4.308067595666564137e-02
1.435000000000000000e+02 9.252331192201692645e-01 4.271571662947114961e-02
1.435500000000000114e+02 9.211182898892406046e-01 4.218407594671246680e-02
1.435999999999999943e+02 9.182329502615965700e-01 4.151653634422902001e-02
1.436500000000000057e+02 9.167532348613929294e-01 4.075580865917378948e-02
1.437000000000000171e+02 9.167579522015508742e-01 3.995164577571019143e-02
1.437500000000000000e+02 9.182290965531537674e-01 3.915526656830586871e-02
1.438000000000000114e+02 9.210650552844872330e-01 3.841412359563002588e-02
1.438499999999999943e+02 9.251016597530568042e-01 3.776780632834725315e-02
1.439000000000000057e+02 9.301353105841768665e-01 3.724546353917577296e-02
1.439500000000000171e+02 9.359434135512978425e-01 3.686472864004557148e-02
1.440000000000000000e+02 9.422993831118384733e-01 3.663185902477021638e-02
1.440500000000000114e+02 9.489815367235414634e-01 3.654268890995586438e-02
1.440999999999999943e+02 9.557767269545368594e-01 3.658401676086515952e-02
1.441500000000000057e+02 9.624803997555478885e-01 3.673515126494036193e-02
1.442000000000000171e+02 9.688950613133266998e-01 3.696947463737545320e-02
1.442500000000000000e+02 9.748290862056687711e-01 3.725601101731988718e-02
1.443000000000000114e+02 9.800975445728986601e-01 3.756108312908362779e-02
1.443499999999999943e+02 9.845262968049005581e-01 3.785018089199183866e-02
1.444000000000000057e+02 9.879599527731400821e-01 3.809013562717739748e-02
1.444500000000000171e+02 9.902733682598995335e-01 3.825158814689397918e-02
1.445000000000000000e+02 9.913852029373129149e-01 3.831157479720482401e-02
1.445500000000000114e+02 9.912709263686504402e-01 3.825587961815338917e-02
1.445999999999999943e+02 9.899719503294833745e-01 3.808068758539875920e-02
1.446500000000000057e+02 9.875977432976578152e-01 3.779309865085084957e-02
1.447000000000000171e+02 9.843190657472516980e-01 3.741025700000739224e-02
1.447500000000000000e+02 9.803525940386283999e-01 3.695716853926132861e-02
1.448000000000000114e+02 9.759394435955229818e-01 3.646360563722441522e-02
1.448499999999999943e+02 9.713215836994362196e-01 3.596070158414486212e-02
1.449000000000000057e+02 9.667203121263033827e-01 3.547784583470166980e-02
1.449500000000000171e+02 9.623198953073968109e-01 3.504032488689433344e-02
1.450000000000000000e+02 9.582577567951083841e-01 3.466790155106153071e-02
1.450500000000000114e+02 9.546209318716000203e-01 3.437428841203745561e-02
1.450999999999999943e+02 9.514474023759583732e-01 3.416731514527045904e-02
1.451500000000000057e+02 9.487305321335357533e-01 3.404953006897815798e-02
1.452000000000000171e+02 9.464250102475098014e-01 3.401899413169622022e-02
1.452500000000000000e+02 9.444532331890657106e-01 3.407008763071127377e-02
1.453000000000000114e+02 9.427116913476496496e-01 3.419422734928039692e-02
1.453499999999999943e+02 9.410775169586365063e-01 3.438046581685512415e-02
1.454000000000000057e+02 9.394158024292414977e-01 3.461600522241289890e-02
1.454500000000000171e+02 9.375885324527946096e-01 3.488670022230440371e-02
1.455000000000000000e+02 9.354658930180662635e-01 3.517763979823749360e-02
1.455500000000000114e+02 9.329402120113013952e-01 3.547387976682075950e-02
1.455999999999999943e+02 9.299417838035984873e-01 3.576133846181141912e-02
1.456500000000000057e+02 9.264544447520886017e-01 3.602777549461656792e-02
1.457000000000000171e+02 9.225274193032558800e-01 3.626367776788313319e-02
1.457500000000000000e+02 9.182793759574126025e-01 3.646282956472940429e-02
1.458000000000000114e+02 9.138915584874401921e-01 3.662239134245512395e-02
1.458499999999999943e+02 9.095894839840911184e-01 3.674245663984202631e-02
1.459000000000000057e+02 9.056162303875822106e-01 3.682523517636709931e-02
1.459500000000000171e+02 9.022031834501306191e-01 3.687412693700931748e-02
1.460000000000000000e+02 8.995448204456870656e-01 3.689294664769645488e-02
1.460500000000000114e+02 8.977823514875712396e-01 3.688544973475131605e-02
1.460999999999999943e+02 8.969978283311772493e-01 3.685517552662390117e-02
1.461500000000000057e+02 8.972172477625141029e-01 3.680553149207309305e-02
1.462000000000000171e+02 8.984193672264826347e-01 3.674001674983376486e-02
1.462500000000000000e+02 9.005466481855445293e-01 3.666250427078760615e-02
1.463000000000000114e+02 9.035154840454385772e-01 3.657753636367210015e-02
1.463499999999999943e+02 9.072239939639236139e-01 3.649061433540552041e-02
1.464000000000000057e+02 9.115566851898183609e-01 3.640847295828000124e-02
1.464500000000000171e+02 9.163860000740785550e-01 3.633932546725678753e-02
1.465000000000000000e+02 9.215711796842304127e-01 3.629305014129709933e-02
1.465500000000000114e+02 9.269551080772239215e-01 3.628126980047026440e-02
1.465999999999999943e+02 9.323599849287982355e-01 3.631725542725399575e-02
1.466500000000000057e+02 9.375829221067905062e-01 3.641557075785897823e-02
1.467000000000000171e+02 9.423929386517581053e-01 3.659137479946621141e-02
1.467500000000000000e+02 9.465313319283803484e-01 3.685932378551044081e-02
1.468000000000000114e+02 9.497179047395476470e-01 3.723206957453836785e-02
1.468499999999999943e+02 9.516657267806271081e-01 3.771843411881387054e-02
1.469000000000000057e+02 9.521065036266395110e-01 3.832143230044948029e-02
1.469500000000000171e+02 9.508266331101792312e-01 3.903639664444435997e-02
1.470000000000000000e+02 9.477103450053158129e-01 3.984951996348921194e-02
1.470500000000000114e+02 9.427815284817575581e-01 4.073718746103244248e-02
1.470999999999999943e+02 9.362318944576291102e-01 4.166650978848795289e-02
1.471500000000000057e+02 9.284229003552010306e-01 4.259740834146583111e-02
1.472000000000000171e+02 9.198544911084368669e-01 4.348631255661758455e-02
1.472500000000000000e+02 9.111042029685934018e-01 4.429099529325662005e-02
1.473000000000000114e+02 9.027508705768910735e-01 4.497554236221739526e-02
1.473499999999999943e+02 8.953023339984987894e-01 4.551429240383324248e-02
1.474000000000000057e+02 8.891435058101775368e-01 4.589394485164945831e-02
1.474500000000000171e+02 8.845122493375944250e-01 4.611369779926581536e-02
1.475000000000000000e+02 8.815009244876262917e-01 4.618385874652109618e-02
1.475500000000000114e+02 8.800754122691399894e-01 4.612362516932982937e-02
1.475999999999999943e+02 8.801020956639736825e-01 4.595866411936801871e-02
1.476500000000000057e+02 8.813752972643602579e-01 4.571888247267649752e-02
1.477000000000000171e+02 8.836409404078103824e-01 4.543652601389175372e-02
1.477500000000000000e+02 8.866151486755040612e-01 4.514456240984675295e-02
1.478000000000000114e+02 8.899984623430410302e-01 4.487521188269006506e-02
1.478499999999999943e+02 8.934873019218236845e-01 4.465847742892913724e-02
1.479000000000000057e+02 8.967844856264673981e-01 4.452057188648147340e-02
1.479500000000000171e+02 8.996102681608898477e-01 4.448222191283916077e-02
1.480000000000000000e+02 9.017147074976253895e-01 4.455693145761240731e-02
1.480500000000000114e+02 9.028913288485791444e-01 4.474939112862848234e-02
1.480999999999999943e+02 9.029911814151484473e-01 4.505430209476933567e-02
1.481500000000000057e+02 9.019356429532264796e-01 4.545591628124975164e-02
1.482000000000000171e+02 8.997259095172347454e-01 4.592855226434008203e-02
1.482500000000000000e+02 8.964471710289833029e-01 4.643821653314936237e-02
1.483000000000000114e+02 8.922660691041195413e-01 4.694526036085724247e-02
1.483499999999999943e+02 8.874210528406661913e-01 4.740778587787745912e-02
1.484000000000000057e+02 8.822064305202476087e-01 4.778535271093355824e-02
1.484500000000000171e+02 8.769519323130383626e-01 4.804248694601563618e-02
1.485000000000000000e+02 8.720001799236294371e-01 4.815157185718444560e-02
1.485500000000000114e+02 8.676844911424115292e-01 4.809486905702592408e-02
1.485999999999999943e+02 8.643090041730989714e-01 4.786561362255888075e-02
1.486500000000000057e+02 8.621323946856240816e-01 4.746828399141612281e-02
1.487000000000000171e+02 8.613557192229719384e-01 4.691823074856370235e-02
1.487500000000000000e+02 8.621143393693437851e-01 4.624085473052272355e-02
1.488000000000000114e+02 8.644735497001945213e-01 4.547047490996120739e-02
1.488499999999999943e+02 8.684274389556717599e-01 4.464895034124619771e-02
1.489000000000000057e+02 8.739005830565835797e-01 4.382404626121488844e-02
1.489500000000000171e+02 8.807523017281868594e-01 4.304748396928503862e-02
1.490000000000000000e+02 8.887833194086531829e-01 4.237260259746431640e-02
1.490500000000000114e+02 8.977446993733138036e-01 4.185159763553485818e-02
1.490999999999999943e+02 9.073488511064937700e-01 4.153238673324254060e-02
1.491500000000000057e+02 9.172822657208347108e-01 4.145527301984178875e-02
1.492000000000000171e+02 9.272194598985729064e-01 4.164969414378217466e-02
1.492500000000000000e+02 9.368374625554930502e-01 4.213141131739211315e-02
1.493000000000000114e+02 9.458301087797046369e-01 4.290046783537801445e-02
1.493499999999999943e+02 9.539214367984480969e-01 4.394013436731135369e-02
1.494000000000000057e+02 9.608776071140263664e-01 4.521691227697891002e-02
1.494500000000000171e+02 9.665169383845961804e-01 4.668155654321778925e-02
1.495000000000000000e+02 9.707178216412032379e-01 4.827104435065061872e-02
1.495500000000000114e+02 9.734243703292244643e-01 4.991143780118621059e-02
1.495999999999999943e+02 9.746496445491358296e-01 5.152161895257593299e-02
1.496500000000000057e+02 9.744761487419311141e-01 5.301786327019404610e-02
1.497000000000000171e+02 9.730530918820268216e-01 5.431913754893638591e-02
1.497500000000000000e+02 9.705897251826326455e-01 5.535286153065659825e-02
1.498000000000000114e+02 9.673440841891307596e-01 5.606068481544658477e-02
1.498499999999999943e+02 9.636068075291173152e-01 5.640365185694771327e-02
1.499000000000000057e+02 9.596804545792507746e-01 5.636602591149072333e-02
1.499500000000000171e+02 9.558558121448028633e-01 5.595708660180175736e-02
1.500000000000000000e+02 9.523877827846053412e-01 5.521044398787525176e-02
1.500500000000000114e+02 9.494741649645908055e-01 5.418080263671042757e-02
1.500999999999999943e+02 9.472405829905143904e-01 5.293857015978254560e-02
1.501500000000000057e+02 9.457338656952408718e-01 5.156310069672970231e-02
1.502000000000000171e+02 9.449245394758605254e-01 5.013557088556580554e-02
1.502500000000000000e+02 9.447173225835910904e-01 4.873244604352502951e-02
1.503000000000000114e+02 9.449671660739699108e-01 4.742023962113074698e-02
1.503499999999999943e+02 9.454978513613919722e-01 4.625190250620631743e-02
1.504000000000000057e+02 9.461204485801634201e-01 4.526482582333531818e-02
1.504500000000000171e+02 9.466497992932811911e-01 4.448019830531517449e-02
1.505000000000000000e+02 9.469182300255852835e-01 4.390336586385421014e-02
1.505500000000000114e+02 9.467865969363555845e-01 4.352487807410857640e-02
1.505999999999999943e+02 9.461533054813892063e-01 4.332202150362913368e-02
1.506500000000000057e+02 9.449620693290651241e-01 4.326077612987463961e-02
1.507000000000000171e+02 9.432088815251203906e-01 4.329824503871298330e-02
1.507500000000000000e+02 9.409480293066621037e-01 4.338566998700641580e-02
1.508000000000000114e+02 9.382961091989098223e-01 4.347213200287133872e-02
1.508499999999999943e+02 9.354321089210833051e-01 4.350892403651161755e-02
1.509000000000000057e+02 9.325910800862770023e-01 4.345436411991621117e-02
1.509500000000000171e+02 9.300492048191330019e-01 4.327852909586570734e-02
1.510000000000000000e+02 9.280995512193209729e-01 4.296713300450263895e-02
1.510500000000000114e+02 9.270204762189701020e-01 4.252369957468389583e-02
1.510999999999999943e+02 9.270416948516974065e-01 4.196940400831357387e-02
1.511500000000000057e+02 9.283150839700282653e-01 4.134047453158661706e-02
1.512000000000000171e+02 9.308969869630100424e-01 4.068366753002373992e-02
1.512500000000000000e+02 9.347458269377090234e-01 4.005079100842801748e-02
1.513000000000000114e+02 9.397343723662524573e-01 3.949335500025544926e-02
1.513499999999999943e+02 9.456720290715426858e-01 3.905817466868885535e-02
1.514000000000000057e+02 9.523306537546710748e-01 3.878431450844162937e-02
1.514500000000000171e+02 9.594679286221803327e-01 3.870135252035492718e-02
1.515000000000000000e+02 9.668444703697604004e-01 3.882868958523224417e-02
1.515500000000000114e+02 9.742333394421877069e-01 3.917554168417288624e-02
1.515999999999999943e+02 9.814225655942041548e-01 3.974127056948559278e-02
1.516500000000000057e+02 9.882124052194881658e-01 4.051576759581154707e-02
1.517000000000000171e+02 9.944094427530740798e-01 4.147967530536549041e-02
1.517500000000000000e+02 9.998196751968988494e-01 4.260431613032993059e-02
1.518000000000000114e+02 1.004242680653121500e+00 4.385131729402939188e-02
1.518499999999999943e+02 1.007469039758372542e+00 4.517209338286620746e-02
1.519000000000000057e+02 1.009283346635093670e+00 4.650757520765148173e-02
1.519500000000000171e+02 1.009475201823248680e+00 4.778882646043484950e-02
1.520000000000000000e+02 1.007860093154190340e+00 4.893938508300934437e-02
1.520500000000000114e+02 1.004310460375237302e+00 4.988014827137306206e-02
1.520999999999999943e+02 9.987940483973241079e-01 5.053718584464143848e-02
1.521500000000000057e+02 9.914121085631538710e-01 5.085188912528845750e-02
1.522000000000000171e+02 9.824256535973104887e-01 5.079150750646992812e-02
1.522500000000000000e+02 9.722567015643575061e-01 5.035701004098710326e-02
1.523000000000000114e+02 9.614560774197572490e-01 4.958521274508713439e-02
1.523499999999999943e+02 9.506399748404293915e-01 4.854371774423460462e-02
1.524000000000000057e+02 9.404097856232828123e-01 4.731985040417971411e-02
1.524500000000000171e+02 9.312768166786753454e-01 4.600698750701643497e-02
1.525000000000000000e+02 9.236110479333096146e-01 4.469217274186271238e-02
1.525500000000000114e+02 9.176227425893737077e-01 4.344766010494910402e-02
1.525999999999999943e+02 9.133737810570992099e-01 4.232705834271155432e-02
1.526500000000000057e+02 9.108079171914699179e-01 4.136522257451064055e-02
1.527000000000000171e+02 9.097876602378610622e-01 4.058043406049551688e-02
1.527500000000000000e+02 9.101284140031248304e-01 3.997753788634043903e-02
1.528000000000000114e+02 9.116249060742606103e-01 3.955114781841018168e-02
1.528499999999999943e+02 9.140686751432647306e-01 3.928846152606736697e-02
1.529000000000000057e+02 9.172576659289202183e-01 3.917153250292318423e-02
1.529500000000000171e+02 9.209999536663193709e-01 3.917901734537423963e-02
1.530000000000000000e+02 9.251137678554572918e-01 3.928750127245318746e-02
1.530500000000000114e+02 9.294257551192884881e-01 3.947253991924052491e-02
1.530999999999999943e+02 9.337690898842853082e-01 3.970956325692578254e-02
1.531500000000000057e+02 9.379827173495878245e-01 3.997477447998715183e-02
1.532000000000000171e+02 9.419126855503232587e-01 4.024614043440451205e-02
1.532500000000000000e+02 9.454161203358253385e-01 4.050450641770485249e-02
