# Frequency Ratio Error
1.400000000000000000e+02 9.478144966372034075e-01 8.694524301207016276e-03
1.400500000000000114e+02 9.488966124312092631e-01 8.254479697450307907e-03
1.400999999999999943e+02 9.505339394578307122e-01 7.851278853971591087e-03
1.401500000000000057e+02 9.526694622066254059e-01 7.483186810905900765e-03
1.402000000000000171e+02 9.552198693862190559e-01 7.137357222044755402e-03
1.402500000000000000e+02 9.580794891478947584e-01 6.798384566409207928e-03
1.403000000000000114e+02 9.611245664553837997e-01 6.456838891579151987e-03
1.403499999999999943e+02 9.642180754627388550e-01 6.114712627052349726e-03
1.404000000000000057e+02 9.672155330797598261e-01 5.786516112724005706e-03
1.404500000000000171e+02 9.699723212779822745e-01 5.495940770073859220e-03
1.405000000000000000e+02 9.723527531270760305e-01 5.268741704653759350e-03
1.405500000000000114e+02 9.742405252630617074e-01 5.123812923709388650e-03
1.405999999999999943e+02 9.755494114640369530e-01 5.066338249074622130e-03
1.406500000000000057e+02 9.762323454408611267e-01 5.087008645679087088e-03
1.407000000000000171e+02 9.762867795360055112e-01 5.167597964361341986e-03
1.407500000000000000e+02 9.757546641494775352e-01 5.288681931103415661e-03
1.408000000000000114e+02 9.747165512922557618e-01 5.434763424644181370e-03
1.408499999999999943e+02 9.732807989507020752e-01 5.595185083469210625e-03
1.409000000000000057e+02 9.715700523426507029e-01 5.762198508729108812e-03
1.409500000000000171e+02 9.697076345599892067e-01 5.928495925126518566e-03
1.410000000000000000e+02 9.678060956849280361e-01 6.085832971486436656e-03
1.410500000000000114e+02 9.659592275201313027e-01 6.225161624909958738e-03
1.410999999999999943e+02 9.642377976077447510e-01 6.337784102501741422e-03
1.411500000000000057e+02 9.626884553642551801e-01 6.416755575881380458e-03
1.412000000000000171e+02 9.613348689147233062e-01 6.457956331513260359e-03
1.412500000000000000e+02 9.601801276967008025e-01 6.460593293818512640e-03
1.413000000000000114e+02 9.592096627376363038e-01 6.427148068123551654e-03
1.413499999999999943e+02 9.583942575036692446e-01 6.362907806697058223e-03
1.414000000000000057e+02 9.576930489035984095e-01 6.275240152856358285e-03
1.414500000000000171e+02 9.570566907825809322e-01 6.172764266063056858e-03
1.415000000000000000e+02 9.564310294374300803e-01 6.064559579695991479e-03
1.415500000000000114e+02 9.557616771619794616e-01 5.959538391521566371e-03
1.415999999999999943e+02 9.549997123631521756e-01 5.866056719513221274e-03
1.416500000000000057e+02 9.541083482498515789e-01 5.791724738016699667e-03
1.417000000000000171e+02 9.530698372488358716e-01 5.743232809190126388e-03
1.417500000000000000e+02 9.518912915638874095e-01 5.725941237799108546e-03
1.418000000000000114e+02 9.506078079925079916e-01 5.743119455250919950e-03
1.418499999999999943e+02 9.492815879142331159e-01 5.795055142340607528e-03
1.419000000000000057e+02 9.479967024668147779e-01 5.878542509816458636e-03
1.419500000000000171e+02 9.468504348854857033e-01 5.987189247296220360e-03
1.420000000000000000e+02 9.459431304468671753e-01 6.112527087940601393e-03
1.420500000000000114e+02 9.453686985402026677e-01 6.245430208984498709e-03
1.420999999999999943e+02 9.452072841634343581e-01 6.377223500067984857e-03
1.421500000000000057e+02 9.455205514483513429e-01 6.500136452131570139e-03
1.422000000000000171e+02 9.463490424684674052e-01 6.607166209647124568e-03
1.422500000000000000e+02 9.477105589765003613e-01 6.691691939610580793e-03
1.423000000000000114e+02 9.495985426257265161e-01 6.747239678812062477e-03
1.423499999999999943e+02 9.519798784045355733e-01 6.767680536361445585e-03
1.424000000000000057e+02 9.547922287799680552e-01 6.747947585246998232e-03
1.424500000000000171e+02 9.579417388052612337e-01 6.685151479933229730e-03
1.425000000000000000e+02 9.613025459413937490e-01 6.579804678091548051e-03
1.425500000000000114e+02 9.647197600598644840e-01 6.436758531314228614e-03
1.425999999999999943e+02 9.680172241370852415e-01 6.265452652023489367e-03
1.426500000000000057e+02 9.710103228688750088e-01 6.079214152394208683e-03
1.427000000000000171e+02 9.735225639933714481e-01 5.893637888886370073e-03
1.427500000000000000e+02 9.754031574649133507e-01 5.724451019256138543e-03
1.428000000000000114e+02 9.765420682400980379e-01 5.585524427795850524e-03
1.428499999999999943e+02 9.768794890992447133e-01 5.487622434839255908e-03
1.429000000000000057e+02 9.764082559374234194e-01 5.438044417386148598e-03
1.429500000000000171e+02 9.751697264390114528e-01 5.440787094371201706e-03
1.430000000000000000e+02 9.732452174142681711e-01 5.496658577853951941e-03
1.430500000000000114e+02 9.707457159672616687e-01 5.603054747773506851e-03
1.430999999999999943e+02 9.678022362340410467e-01 5.753584732049747165e-03
1.431500000000000057e+02 9.645582556319906020e-01 5.937981868846693538e-03
1.432000000000000171e+02 9.611645843498480835e-01 6.142601842646938475e-03
1.432500000000000000e+02 9.577761199973902073e-01 6.351483341623669239e-03
1.433000000000000114e+02 9.545493590080863511e-01 6.547709028146621833e-03
1.433499999999999943e+02 9.516393111279926043e-01 6.714768655871267318e-03
1.434000000000000057e+02 9.491946035429368322e-01 6.837728383500683849e-03
1.434500000000000171e+02 9.473500875782852049e-01 6.904145971176409678e-03
1.435000000000000000e+02 9.462171596812051222e-01 6.904779632627867404e-03
1.435500000000000114e+02 9.458731330315180985e-01 6.834194767420099723e-03
1.435999999999999943e+02 9.463519948378186220e-01 6.691359561016460740e-03
1.436500000000000057e+02 9.476392634392247771e-01 6.480226657053684419e-03
1.437000000000000171e+02 9.496730329537794724e-01 6.210149624021991076e-03
1.437500000000000000e+02 9.523517015991289636e-01 5.895854164151014681e-03
1.438000000000000114e+02 9.555469078364680069e-01 5.556658726481718442e-03
1.438499999999999943e+02 9.591187090137487381e-01 5.214751597355756982e-03
1.439000000000000057e+02 9.629296590000864242e-01 4.892559124224963099e-03
1.439500000000000171e+02 9.668552069482175826e-01 4.609557339658970458e-03
1.440000000000000000e+02 9.707892466128109632e-01 4.379265232530534131e-03
1.440500000000000114e+02 9.746450384458074101e-01 4.207453365057333208e-03
1.440999999999999943e+02 9.783526619419252723e-01 4.092419536854498274e-03
1.441500000000000057e+02 9.818545290932345626e-01 4.027287864953360726e-03
1.442000000000000171e+02 9.851004377734877693e-01 4.003177822670010363e-03
1.442500000000000000e+02 9.880433726222603852e-01 4.011694816746637880e-03
1.443000000000000114e+02 9.906369241038457396e-01 4.045806609924879581e-03
1.443499999999999943e+02 9.928348552308313701e-01 4.099210663463729969e-03
1.444000000000000057e+02 9.945929904186209258e-01 4.165071017213847759e-03
1.444500000000000171e+02 9.958732009473582059e-01 4.235191073173727623e-03
1.445000000000000000e+02 9.966488164172786490e-01 4.300306264404953061e-03
1.445500000000000114e+02 9.969103681519292381e-01 4.351482174122531764e-03
1.445999999999999943e+02 9.966703014240452241e-01 4.381975678583328176e-03
1.446500000000000057e+02 9.959653267720484093e-01 4.388660892589380837e-03
1.447000000000000171e+02 9.948554934692779295e-01 4.372308447827957106e-03
1.447500000000000000e+02 9.934197916675240325e-01 4.336519736295186764e-03
1.448000000000000114e+02 9.917489064914832841e-01 4.285749870777545711e-03
1.448499999999999943e+02 9.899363809565249195e-01 4.223337192533117672e-03
1.449000000000000057e+02 9.880696941188819027e-01 4.150521908790126384e-03
1.449500000000000171e+02 9.862225940419782066e-01 4.066985324247236223e-03
1.450000000000000000e+02 9.844495729880815560e-01 3.972708222634659982e-03
1.450500000000000114e+02 9.827828414747085128e-01 3.870355741869322720e-03
1.450999999999999943e+02 9.812317273239309356e-01 3.767191965368032937e-03
1.451500000000000057e+02 9.797841854622132418e-01 3.675626108185021685e-03
1.452000000000000171e+02 9.784100512757605284e-01 3.611740193684590938e-03
1.452500000000000000e+02 9.770657413444268080e-01 3.591670722930792418e-03
1.453000000000000114e+02 9.757002134240752023e-01 3.626807397599470396e-03
1.453499999999999943e+02 9.742620575628336832e-01 3.720058515999150137e-03
1.454000000000000057e+02 9.727075323432989862e-01 3.865440057264185082e-03
1.454500000000000171e+02 9.710091408354279974e-01 4.051197408095242800e-03
1.455000000000000000e+02 9.691639618263584444e-01 4.264342059480653868e-03
1.455500000000000114e+02 9.672004895603064645e-01 4.494042822692194059e-03
1.455999999999999943e+02 9.651823631927877178e-01 4.732550119682439604e-03
1.456500000000000057e+02 9.632073389986368639e-01 4.973852451286508991e-03
1.457000000000000171e+02 9.614004140343747062e-01 5.211324669883648369e-03
1.457500000000000000e+02 9.599012109062108333e-01 5.436006739044560096e-03
1.458000000000000114e+02 9.588473127414177677e-01 5.636698286322242707e-03
1.458499999999999943e+02 9.583566113578562140e-01 5.801957778094041403e-03
1.459000000000000057e+02 9.585122535364805074e-01 5.923024519044286541e-03
1.459500000000000171e+02 9.593531168292253053e-01 5.996273723008900894e-03
1.460000000000000000e+02 9.608711538946810293e-01 6.024162130630606599e-03
1.460500000000000114e+02 9.630150893493433228e-01 6.014356546158719161e-03
1.460999999999999943e+02 9.656985546576344337e-01 5.977441284052721453e-03
1.461500000000000057e+02 9.688101934753479139e-01 5.924041632532013428e-03
1.462000000000000171e+02 9.722235141361529331e-01 5.862315657231538177e-03
1.462500000000000000e+02 9.758049791707796849e-01 5.796569048836621926e-03
1.463000000000000114e+02 9.794196360601622464e-01 5.727311152385716579e-03
1.463499999999999943e+02 9.829342641164796612e-01 5.652560546083078979e-03
1.464000000000000057e+02 9.862184548161041509e-01 5.569836051030709924e-03
1.464500000000000171e+02 9.891442873722214868e-01 5.478152979839136065e-03
1.465000000000000000e+02 9.915853869096744599e-01 5.379438454787311384e-03
1.465500000000000114e+02 9.934162354421511854e-01 5.278954611553621744e-03
1.465999999999999943e+02 9.945126881127346330e-01 5.184509276289730149e-03
1.466500000000000057e+02 9.947547183488042455e-01 5.104505275050551412e-03
1.467000000000000171e+02 9.940323988979106185e-01 5.045343371109187527e-03
1.467500000000000000e+02 9.922558734801887326e-01 5.009290154624795183e-03
1.468000000000000114e+02 9.893693935398321093e-01 4.994250301885690482e-03
1.468499999999999943e+02 9.853682406310058095e-01 4.996415152549105003e-03
1.469000000000000057e+02 9.803156053322125141e-01 5.015398039113334004e-03
1.469500000000000171e+02 9.743547546327083753e-01 5.059728229055909972e-03
1.470000000000000000e+02 9.677110681607276055e-01 5.149214828303175229e-03
1.470500000000000114e+02 9.606798305907818802e-01 5.310743020891485304e-03
1.470999999999999943e+02 9.535993790209408294e-01 5.567105287176687956e-03
1.471500000000000057e+02 9.468142013074546393e-01 5.924293635663847694e-03
1.472000000000000171e+02 9.406364905700443924e-01 6.365727609825237894e-03
1.472500000000000000e+02 9.353152857182921442e-01 6.856828947500379079e-03
1.473000000000000114e+02 9.310192797890470828e-01 7.355430533116828935e-03
1.473499999999999943e+02 9.278343931214600993e-01 7.821502335376939036e-03
1.474000000000000057e+02 9.257728281377107793e-01 8.223026580326414994e-03
1.474500000000000171e+02 9.247882037029148128e-01 8.538180284023302521e-03
1.475000000000000000e+02 9.247916087120411355e-01 8.755217148804818328e-03
1.475500000000000114e+02 9.256650697638697523e-01 8.871343019843264469e-03
1.475999999999999943e+02 9.272709018705954653e-01 8.891394547410240781e-03
1.476500000000000057e+02 9.294570185231297854e-01 8.826674296262914873e-03
1.477000000000000171e+02 9.320593093020518305e-01 8.693967344020718524e-03
1.477500000000000000e+02 9.349027218000947048e-01 8.514563840956192869e-03
1.478000000000000114e+02 9.378028458190321714e-01 8.313029307677168023e-03
1.478499999999999943e+02 9.405696641787584245e-01 8.115507289111062450e-03
1.479000000000000057e+02 9.430146906243200844e-01 7.947517749516927119e-03
1.479500000000000171e+02 9.449619136544493703e-01 7.831488706185182544e-03
1.480000000000000000e+02 9.462618311141197669e-01 7.784482903446991384e-03
1.480500000000000114e+02 9.468065966756080698e-01 7.816559975887824377e-03
1.480999999999999943e+02 9.465433098221469610e-01 7.929915453992786994e-03
1.481500000000000057e+02 9.454822446821802284e-01 8.118638566490317399e-03
1.482000000000000171e+02 9.436976227649769289e-01 8.368958485104271983e-03
1.482500000000000000e+02 9.413202501404994704e-01 8.660131069526158867e-03
1.483000000000000114e+02 9.385233631644881447e-01 8.966228636695825968e-03
1.483499999999999943e+02 9.355045793540675003e-01 9.258811528055735027e-03
1.484000000000000057e+02 9.324673848295564893e-01 9.510031475099002193e-03
1.484500000000000171e+02 9.296050550559171732e-01 9.695517390861593809e-03
1.485000000000000000e+02 9.270886920163308176e-01 9.796529951940906311e-03
1.485500000000000114e+02 9.250597217646628900e-01 9.801180950774134384e-03
1.485999999999999943e+02 9.236261646022516647e-01 9.704793760962015375e-03
1.486500000000000057e+02 9.228614512282021787e-01 9.509631692085922586e-03
1.487000000000000171e+02 9.228044850291726720e-01 9.224244195998754919e-03
1.487500000000000000e+02 9.234599138758790016e-01 8.862626186345021195e-03
1.488000000000000114e+02 9.247980396497755828e-01 8.443303995325635372e-03
1.488499999999999943e+02 9.267543627029276587e-01 7.988386389251211223e-03
1.489000000000000057e+02 9.292293606847887855e-01 7.522564036042632234e-03
1.489500000000000171e+02 9.320896500149473685e-01 7.071999743088735330e-03
1.490000000000000000e+02 9.351720269005567854e-01 6.663003036003441355e-03
1.490500000000000114e+02 9.382918182998233325e-01 6.320314223034408270e-03
1.490999999999999943e+02 9.412562790689207315e-01 6.064799742180549715e-03
1.491500000000000057e+02 9.438824009173919505e-01 5.910578845868516389e-03
1.492000000000000171e+02 9.460167500216943859e-01 5.862222621131122496e-03
1.492500000000000000e+02 9.475535075363915594e-01 5.913350640309177585e-03
1.493000000000000114e+02 9.484465590727644280e-01 6.047809960875932984e-03
1.493499999999999943e+02 9.487126922493802628e-01 6.243328766668302006e-03
1.494000000000000057e+02 9.484253652578233940e-01 6.476154023760955468e-03
1.494500000000000171e+02 9.477010794005370498e-01 6.724920348314632895e-03
1.495000000000000000e+02 9.466820292740569798e-01 6.972775901360993289e-03
1.495500000000000114e+02 9.455188918079957539e-01 7.207747739451123188e-03
1.495999999999999943e+02 9.443565913869378381e-01 7.421912906573927167e-03
1.496500000000000057e+02 9.433243385683256488e-01 7.610100782376176716e-03
1.497000000000000171e+02 9.425298590528484732e-01 7.768729231559281558e-03
1.497500000000000000e+02 9.420568708339266406e-01 7.895119654116255006e-03
1.498000000000000114e+02 9.419645683382756873e-01 7.987357148822316066e-03
1.498499999999999943e+02 9.422879858296437927e-01 8.044537255686911789e-03
1.499000000000000057e+02 9.430384538719113197e-01 8.067109485939307281e-03
1.499500000000000171e+02 9.442037894375676643e-01 8.057003690777969629e-03
1.500000000000000000e+02 9.457482831091179598e-01 8.017311780793340628e-03
1.500500000000000114e+02 9.476129064702962790e-01 7.951490506667194605e-03
1.500999999999999943e+02 9.497164023318804826e-01 7.862316092808414869e-03
1.501500000000000057e+02 9.519579758023998250e-01 7.751058935511078232e-03
1.502000000000000171e+02 9.542221224238265354e-01 7.617400820715121597e-03
1.502500000000000000e+02 9.563857094105139289e-01 7.460371080420807530e-03
1.503000000000000114e+02 9.583268562301607840e-01 7.280083580641298624e-03
1.503499999999999943e+02 9.599346199756794151e-01 7.079561035552706452e-03
1.504000000000000057e+02 9.611181869992301285e-01 6.865735547937470984e-03
1.504500000000000171e+02 9.618143407866913686e-01 6.648968832428315406e-03
1.505000000000000000e+02 9.619923997597652487e-01 6.441071770337117482e-03
1.505500000000000114e+02 9.616564265069424966e-01 6.252563263913532565e-03
1.505999999999999943e+02 9.608450620397147590e-01 6.090412904901371625e-03
1.506500000000000057e+02 9.596296418379549609e-01 5.957384668571437392e-03
1.507000000000000171e+02 9.581112329996823718e-01 5.853251578919257438e-03
1.507500000000000000e+02 9.564169471297666592e-01 5.777018281778531147e-03
1.508000000000000114e+02 9.546954637520734810e-01 5.728600250439074351e-03
1.508499999999999943e+02 9.531113012390846073e-01 5.708633291261110999e-03
1.509000000000000057e+02 9.518371453258951398e-01 5.716157275306092515e-03
1.509500000000000171e+02 9.510436133359935207e-01 5.745330188110490607e-03
1.510000000000000000e+02 9.508862745973287733e-01 5.783272202053740818e-03
1.510500000000000114e+02 9.514905570160681059e-01 5.810852217136894433e-03
1.510999999999999943e+02 9.529361971127648934e-01 5.806745731017217554e-03
1.511500000000000057e+02 9.552438172010226936e-01 5.753423906485159202e-03
1.512000000000000171e+02 9.583666120663835164e-01 5.642883464895686631e-03
1.512500000000000000e+02 9.621896423526127284e-01 5.480034430131938694e-03
1.513000000000000114e+02 9.665378092006732258e-01 5.282314999100323066e-03
1.513499999999999943e+02 9.711916037000213331e-01 5.075067835129734410e-03
1.514000000000000057e+02 9.759078858241030385e-01 4.883646650894720234e-03
1.514500000000000171e+02 9.804419366028334082e-01 4.725144379899765858e-03
1.515000000000000000e+02 9.845671615820258404e-01 4.603942110658002483e-03
1.515500000000000114e+02 9.880899185067896218e-01 4.513959645775991389e-03
1.515999999999999943e+02 9.908584691538198097e-01 4.446484585576823689e-03
1.516500000000000057e+02 9.927664488128716824e-01 4.399095118186644934e-03
1.517000000000000171e+02 9.937521487813754106e-01 4.381069322623885529e-03
1.517500000000000000e+02 9.937952353419504670e-01 4.412620759822533795e-03
1.518000000000000114e+02 9.929124000976954356e-01 4.517612471568861927e-03
1.518499999999999943e+02 9.911530415965890128e-01 4.712450227629675498e-03
1.519000000000000057e+02 9.885955851723404741e-01 4.997035912600905801e-03
1.519500000000000171e+02 9.853445650050329796e-01 5.353056591322910909e-03
1.520000000000000000e+02 9.815281750124692506e-01 5.749434020593760519e-03
1.520500000000000114e+02 9.772956748602552590e-01 6.150346847062245978e-03
1.520999999999999943e+02 9.728138506446826206e-01 6.521820847588189959e-03
1.521500000000000057e+02 9.682617319203848938e-01 6.835649398058879327e-03
1.522000000000000171e+02 9.638230196953881945e-01 7.071110407472725075e-03
1.522500000000000000e+02 9.596762113397184768e-01 7.215317857009056340e-03
1.523000000000000114e+02 9.559831537192485795e-01 7.262906179858903341e-03
1.523499999999999943e+02 9.528775213741417227e-01 7.215533811966624682e-03
1.524000000000000057e+02 9.504552086408236677e-01 7.081459057923211384e-03
1.524500000000000171e+02 9.487685692900131862e-01 6.875159114123707491e-03
1.525000000000000000e+02 9.478257426962913845e-01 6.616678455723942059e-03
1.525500000000000114e+02 9.475951597214932187e-01 6.330225895499489754e-03
1.525999999999999943e+02 9.480141323745050475e-01 6.041621509067992245e-03
1.526500000000000057e+02 9.489996257600369356e-01 5.774614967359888336e-03
1.527000000000000171e+02 9.504591218509034212e-01 5.546830118434553820e-03
1.527500000000000000e+02 9.522998661843061763e-01 5.366823431710823072e-03
1.528000000000000114e+02 9.544354927341258676e-01 5.233808522261105406e-03
1.528499999999999943e+02 9.567897578073740750e-01 5.140516062576992555e-03
1.529000000000000057e+02 9.592976763368609161e-01 5.077981370491022051e-03
1.529500000000000171e+02 9.619046698921097649e-01 5.040068321087859404e-03
1.530000000000000000e+02 9.645644345363034722e-01 5.025844317119174468e-03
1.530500000000000114e+02 9.672361947854410946e-01 5.038996723173333296e-03
1.530999999999999943e+02 9.698819036691380679e-01 5.084670456116515552e-03
1.531500000000000057e+02 9.724638296221734812e-01 5.165168791600185071e-03
1.532000000000000171e+02 9.749428599848037891e-01 5.276607042447758848e-03
1.532500000000000000e+02 9.772777458883113999e-01 5.408282161516844537e-03
